Time (seconds),Speed (km/h),Tilt Angle (deg),Internal Temp (C),External Temp (C),Door Open,Engine Temp (C)
0,0.0,0.0,21,29,0,29.0
1,0.0,0.0,21,29,0,35.4
2,0.0,0.0,21,29,0,41.1
3,0.0,0.0,21,29,1,46.2
4,0.0,0.0,21,29,0,50.8
5,0.0,0.0,21,29,0,55.0
6,0.0,0.0,21,29,0,58.8
7,0.0,0.0,21,29,0,62.2
8,0.0,0.0,21,29,0,65.2
9,0.0,0.0,21,29,0,67.9
10,0.0,0.0,21,29,0,70.4
11,0.0,0.0,21,29,0,72.6
12,0.0,0.0,21,29,0,74.6
13,0.0,0.0,21,29,0,76.4
14,0.0,0.0,21,29,0,78.0
15,0.0,0.0,21,29,1,79.4
16,0.0,0.0,21,29,0,80.7
17,0.0,0.0,21,29,0,81.9
18,0.0,0.0,21,29,0,83.0
19,0.0,0.0,21,29,0,84.0
20,0.0,0.0,21,29,0,84.8
21,4.8,0.6,21,29,0,83.8
22,9.5,0.0,21,29,0,82.9
23,13.8,0.8,21,29,0,83.9
24,18.5,1.5,21,29,0,84.0
25,23.0,1.5,21,29,0,83.7
26,27.2,1.7,21,29,0,85.4
27,27.8,2.3,21,29,0,84.2
28,29.1,2.4,21,29,0,85.5
29,33.3,3.1,21,29,0,83.9
30,34.9,2.4,21,29,0,86.5
31,36.0,2.2,21,29,0,86.4
32,36.2,2.3,21,29,0,87.9
33,35.6,3.2,21,29,0,90.5
34,34.6,3.2,21,29,0,88.9
35,33.6,3.1,21,29,0,88.3
36,32.8,3.4,21,29,0,87.0
37,31.9,3.5,21,29,0,85.0
38,27.4,2.8,21,29,0,85.3
39,24.0,2.2,21,29,0,85.3
40,24.0,1.3,21,29,0,84.4
41,24.5,0.9,21,29,0,85.3
42,24.9,1.2,21,29,0,86.0
43,25.7,1.8,21,29,0,86.5
44,27.5,1.7,21,29,0,87.3
45,30.7,2.3,21,29,0,87.8
46,34.0,2.6,21,29,0,89.9
47,36.5,3.1,21,29,0,91.1
48,36.9,3.4,21,29,0,92.6
49,36.5,2.9,21,29,0,91.2
50,36.4,3.4,21,29,0,89.0
51,34.3,3.9,21,29,0,88.7
52,30.6,3.9,21,29,0,88.4
53,27.5,4.2,21,29,0,89.8
54,25.4,3.4,21,29,0,91.9
55,25.4,3.6,21,29,0,92.0
56,28.5,2.9,21,29,0,94.1
57,31.9,2.0,21,29,0,95.1
58,34.8,2.6,21,29,0,94.5
59,37.3,2.2,21,29,0,96.2
60,38.9,2.0,21,29,0,96.7
61,39.6,2.7,21,29,0,98.5
62,40.1,2.7,21,29,0,98.5
63,40.2,2.6,21,29,0,97.9
64,39.6,1.7,21,29,0,95.4
65,39.4,2.3,21,29,0,92.8
66,39.7,3.3,21,29,0,94.9
67,39.9,3.5,21,29,0,93.9
68,39.7,3.2,21,29,0,95.7
69,39.6,3.0,21,29,0,93.7
70,39.6,3.3,21,29,0,94.5
71,40.4,4.1,21,29,0,92.1
72,41.2,3.8,21,29,0,92.6
73,41.4,3.1,21,29,0,93.6
74,40.9,2.1,21,29,0,91.8
75,40.1,1.2,21,29,0,91.2
76,40.2,2.0,21,29,0,93.0
77,40.9,1.0,21,29,0,93.1
78,41.8,0.9,21,29,0,93.0
79,41.8,1.2,21,29,0,94.3
80,41.4,1.0,21,29,0,92.7
81,42.0,1.0,21,29,0,94.7
82,43.0,2.0,21,29,0,93.6
83,44.3,1.1,21,29,0,91.3
84,46.0,0.8,21,29,0,91.5
85,47.2,0.0,21,29,0,93.4
86,48.0,0.4,21,29,0,91.8
87,48.4,0.1,21,29,0,90.5
88,48.9,0.0,21,29,0,88.7
89,49.4,0.3,21,29,0,88.7
90,49.4,1.3,21,29,0,89.5
91,49.1,1.4,21,29,0,91.1
92,48.9,0.6,21,29,0,90.0
93,48.8,1.5,21,29,0,92.2
94,48.9,1.9,21,29,0,92.5
95,49.6,1.5,21,29,0,91.3
96,48.9,1.6,21,29,0,92.3
97,48.1,0.8,21,29,0,91.8
98,47.5,0.7,21,29,0,92.3
99,48.0,1.3,21,29,0,93.5
100,48.8,0.8,21,29,0,90.9
101,49.4,1.0,21,29,0,89.6
102,49.7,0.6,21,29,0,88.7
103,49.9,0.4,21,29,0,88.3
104,49.7,0.6,21,29,0,90.1
105,48.9,0.0,21,29,0,92.0
106,48.0,0.0,21,29,0,89.6
107,48.1,0.2,21,29,0,88.0
108,48.6,0.4,21,29,0,90.2
109,49.4,0.1,21,29,0,88.9
110,50.2,0.3,21,29,0,90.9
111,51.2,0.0,21,29,0,90.3
112,51.8,0.0,21,29,0,91.3
113,52.1,0.0,21,29,0,91.7
114,51.8,0.3,21,29,0,89.3
115,51.0,0.0,21,29,0,89.0
116,46.0,0.4,21,29,0,91.2
117,40.7,0.0,21,29,0,92.2
118,35.4,0.0,21,29,0,93.7
119,30.1,0.7,21,29,0,91.9
120,24.8,0.7,21,29,0,93.9
121,19.5,0.0,21,29,0,94.7
122,14.2,0.7,21,29,0,95.4
123,8.9,1.0,21,29,0,94.0
124,3.5,0.3,21,29,0,92.1
125,0.0,0.3,21,29,0,92.1
126,0.0,0.3,21,29,0,92.1
127,0.0,0.3,21,29,0,92.1
128,0.0,0.3,21,29,0,92.1
129,0.0,0.3,21,29,0,92.1
130,0.0,0.3,21,29,0,92.1
131,0.0,0.3,21,29,0,92.1
132,0.0,0.3,21,29,0,92.1
133,0.0,0.3,21,29,0,92.1
134,0.0,0.3,21,29,0,92.1
135,0.0,0.3,21,29,0,92.1
136,0.0,0.3,21,29,0,92.1
137,0.0,0.3,21,29,0,92.1
138,0.0,0.3,21,29,0,92.1
139,0.0,0.3,21,29,0,92.1
140,0.0,0.3,21,29,1,92.1
141,0.0,0.3,21,29,0,92.1
142,0.0,0.3,21,29,0,92.1
143,0.0,0.3,21,29,0,92.1
144,0.0,0.3,21,29,0,92.1
145,0.0,0.3,21,29,0,92.1
146,0.0,0.3,21,29,0,92.1
147,0.0,0.3,21,29,0,92.1
148,0.0,0.3,21,29,0,92.1
149,0.0,0.3,21,29,0,92.1
150,0.0,0.3,21,29,0,92.1
151,0.0,0.3,21,29,0,92.1
152,0.0,0.3,21,29,0,92.1
153,0.0,0.3,21,29,0,92.1
154,0.0,0.3,21,29,1,92.1
155,0.0,0.3,21,29,0,92.1
156,0.0,0.3,21,29,1,92.1
157,0.0,0.3,21,29,0,92.1
158,0.0,0.3,21,29,0,92.1
159,0.0,0.3,21,29,0,92.1
160,0.0,0.3,21,29,0,92.1
161,0.0,0.3,21,29,1,92.1
162,0.0,0.3,21,29,0,92.1
163,0.0,0.3,21,29,0,92.1
164,5.3,0.0,21,29,0,93.1
165,10.6,0.0,21,29,0,93.4
166,15.9,0.0,21,29,0,92.6
167,21.2,0.1,21,29,0,92.6
168,26.6,0.0,21,29,0,92.9
169,31.9,0.5,21,29,0,93.6
170,35.7,0.3,21,29,0,92.3
171,39.1,0.3,21,29,0,91.3
172,41.5,1.0,21,28,0,90.2
173,42.5,1.5,21,28,0,90.0
174,41.4,2.4,21,28,0,88.9
175,40.4,2.6,21,28,0,88.3
176,39.7,3.5,21,28,0,88.9
177,40.2,2.7,21,28,0,90.5
178,40.6,2.2,21,28,0,89.8
179,40.9,1.2,21,28,0,89.4
180,41.5,0.6,21,28,0,91.2
181,43.8,0.5,21,28,0,92.2
182,42.6,0.1,21,28,0,90.9
183,38.6,0.9,21,28,0,93.0
184,36.5,1.4,21,28,0,92.2
185,31.2,1.8,21,28,0,94.1
186,28.5,2.2,21,28,0,96.3
187,27.7,3.1,21,28,0,96.5
188,29.1,3.5,21,28,0,98.4
189,29.9,3.1,21,28,0,95.5
190,32.2,3.3,21,28,0,94.2
191,35.7,2.4,21,28,0,95.6
192,39.4,1.5,21,28,0,92.6
193,43.9,1.8,21,28,0,92.6
194,49.1,1.9,21,28,0,94.5
195,53.9,1.7,21,28,0,94.4
196,58.3,0.9,21,28,0,92.7
197,60.0,1.8,21,28,0,94.4
198,63.2,1.6,21,28,0,96.4
199,65.2,1.3,21,28,0,95.8
200,67.8,1.8,21,28,0,93.2
201,70.0,1.7,21,28,0,93.9
202,72.6,2.4,21,28,0,95.3
203,74.0,2.0,21,28,0,94.4
204,75.3,1.6,21,28,0,96.3
205,76.4,1.5,21,28,0,94.9
206,76.4,2.0,21,28,0,96.7
207,76.1,2.4,21,28,0,97.5
208,76.0,3.0,21,28,0,98.7
209,75.6,3.6,21,28,0,99.6
210,75.6,4.5,21,28,0,98.0
211,75.6,4.2,21,28,0,98.6
212,75.6,4.9,21,28,0,98.4
213,75.6,4.8,21,28,0,98.9
214,76.0,5.5,21,28,0,99.9
215,76.3,5.6,21,28,0,100.8
216,77.1,4.9,21,28,0,97.4
217,78.1,4.0,21,28,0,94.4
218,79.0,3.0,21,28,0,94.3
219,79.7,2.6,21,28,0,92.1
220,80.5,2.1,21,28,0,92.9
221,81.4,1.4,21,28,0,92.4
222,82.1,2.4,21,28,0,94.5
223,82.9,1.7,21,28,0,92.4
224,84.0,1.8,21,28,0,93.1
225,85.6,1.7,21,28,0,92.0
226,87.1,1.8,21,28,0,93.6
227,87.9,1.3,21,28,0,93.9
228,88.4,2.0,21,28,0,95.0
229,88.5,1.2,21,28,0,95.3
230,88.4,1.5,21,28,0,94.3
231,87.9,0.5,21,28,0,92.1
232,87.9,0.0,21,28,0,93.0
233,88.2,0.5,21,28,0,94.6
234,88.7,0.0,21,28,0,94.6
235,89.3,0.4,21,28,0,93.0
236,89.6,1.1,21,28,0,93.1
237,90.3,0.9,21,28,0,90.5
238,90.6,0.0,21,28,0,89.5
239,91.1,0.0,21,28,0,91.4
240,91.2,0.6,21,28,0,89.2
241,91.2,1.4,21,28,0,87.5
242,90.9,1.7,21,28,0,86.7
243,90.9,2.4,21,28,0,85.4
244,90.9,3.1,21,28,0,86.6
245,90.9,2.9,21,28,0,89.2
246,90.9,2.0,21,28,0,89.9
247,90.9,2.7,21,28,0,89.3
248,90.8,2.1,21,28,0,90.9
249,90.3,3.0,21,28,0,90.6
250,89.8,3.1,21,28,0,88.5
251,88.7,2.4,21,28,0,88.9
252,87.9,1.7,21,28,0,91.3
253,87.2,1.7,21,28,0,91.7
254,86.9,2.1,21,29,0,90.9
255,86.4,2.2,21,29,0,92.9
256,86.3,1.3,21,29,0,92.1
257,86.7,0.8,21,29,0,92.0
258,86.9,0.6,21,29,0,92.9
259,87.1,0.0,21,29,0,93.1
260,87.1,1.0,21,29,0,93.7
261,86.6,0.7,21,29,0,91.3
262,85.9,1.1,21,29,0,89.3
263,85.3,0.5,21,29,0,87.4
264,84.6,0.7,21,29,0,85.2
265,83.8,1.7,21,29,0,85.3
266,84.3,1.2,21,29,0,88.1
267,83.7,1.2,21,29,0,89.7
268,83.5,0.8,21,29,0,89.5
269,83.2,1.7,21,29,0,91.1
270,82.9,1.3,21,29,0,92.4
271,83.0,1.0,21,29,0,92.4
272,83.4,1.1,21,29,0,91.7
273,83.8,0.8,21,29,0,92.5
274,84.5,1.0,21,29,0,93.9
275,85.3,1.2,21,29,0,92.3
276,86.1,1.2,21,29,0,90.8
277,86.9,1.7,21,29,0,91.1
278,88.4,0.7,21,29,0,89.8
279,89.2,0.1,21,29,0,91.1
280,89.5,0.0,21,29,0,89.3
281,90.1,0.7,21,29,0,90.5
282,90.1,1.7,21,29,0,89.1
283,89.8,1.2,21,29,0,88.0
284,88.8,1.9,21,29,0,88.1
285,87.7,2.1,21,29,0,88.2
286,86.3,1.7,21,29,0,87.0
287,84.5,2.1,21,29,0,87.7
288,82.9,2.1,21,29,0,90.1
289,82.9,2.7,21,29,0,91.4
290,82.9,2.4,21,29,0,93.1
291,82.2,3.3,21,29,0,93.2
292,80.6,2.5,21,29,0,93.8
293,80.5,1.9,21,29,0,93.0
294,80.6,1.1,21,29,0,92.5
295,80.5,0.9,21,29,0,91.6
296,79.8,0.5,21,29,0,92.9
297,79.7,0.9,21,29,0,93.8
298,79.7,1.7,21,29,0,93.8
299,79.7,1.8,21,29,0,94.7
300,79.0,2.4,21,29,0,94.1
301,78.2,1.7,21,29,0,93.4
302,77.4,1.7,21,29,0,94.5
303,76.0,2.4,21,29,0,93.3
304,74.2,2.2,21,29,0,95.1
305,72.4,2.1,21,29,0,94.7
306,70.5,2.4,21,29,0,92.3
307,68.6,1.7,21,29,0,90.7
308,66.8,2.3,21,29,0,88.7
309,64.9,2.1,21,29,0,89.1
310,62.0,2.2,21,29,0,87.4
311,59.5,1.9,21,29,0,86.8
312,56.6,1.1,21,29,0,88.3
313,54.4,0.6,21,29,0,86.7
314,52.3,0.0,21,28,0,89.5
315,50.7,0.2,21,28,0,88.5
316,49.2,0.0,21,28,0,87.9
317,49.1,0.3,21,28,0,87.6
318,48.3,0.0,21,28,0,88.5
319,46.7,0.3,21,28,0,86.4
320,44.3,0.0,21,28,0,86.7
321,39.9,0.0,21,28,0,85.7
322,34.6,0.5,21,28,0,86.9
323,32.3,0.5,21,28,0,86.4
324,30.7,0.6,21,28,0,88.2
325,29.8,0.9,21,28,0,88.8
326,27.4,1.8,21,28,0,88.8
327,24.9,2.2,21,28,0,90.0
328,20.1,1.9,21,28,0,88.9
329,17.4,2.1,21,28,0,89.2
330,12.9,1.8,21,28,0,90.7
331,7.6,0.9,21,28,0,91.3
332,2.3,0.7,21,28,0,90.0
333,0.0,0.7,21,28,0,90.2
334,0.0,0.7,21,28,0,90.4
335,0.0,0.7,21,28,0,90.6
336,0.0,0.7,21,28,0,90.8
337,0.0,0.7,21,28,0,91.0
338,0.0,0.7,21,28,0,91.2
339,0.0,0.7,21,28,0,91.3
340,0.0,0.7,21,28,0,91.4
341,0.0,0.7,21,28,0,91.5
342,0.0,0.7,21,28,0,91.6
343,0.0,0.7,21,28,0,91.7
344,0.0,0.7,21,28,0,91.8
345,0.0,0.7,21,28,0,91.9
346,0.0,0.7,21,28,0,92.0
347,1.6,0.3,21,28,0,91.5
348,6.9,0.0,21,28,0,89.1
349,12.2,0.0,21,28,0,88.9
350,17.5,0.0,21,28,0,88.6
351,22.9,0.0,21,28,0,90.2
352,27.8,0.1,21,28,0,89.6
353,32.2,0.1,21,28,0,91.2
354,36.2,0.0,21,28,0,91.3
355,38.1,0.0,21,28,0,93.3
356,40.6,0.2,21,28,0,93.1
357,42.8,0.0,21,28,0,90.6
358,45.2,0.0,21,28,0,88.8
359,48.3,0.0,21,28,0,88.9
360,49.6,0.0,21,28,0,88.0
361,50.9,0.0,21,28,0,89.8
362,51.7,0.0,21,28,0,91.0
363,52.8,0.6,21,28,0,89.5
364,54.1,0.0,21,28,0,87.7
365,55.5,0.0,21,28,0,88.0
366,55.7,1.0,21,28,0,87.1
367,56.2,0.9,21,28,0,88.9
368,56.0,0.2,21,28,0,90.1
369,55.5,0.0,21,28,0,88.7
370,55.8,0.0,21,28,0,88.7
371,57.1,0.0,21,28,0,89.0
372,57.9,0.5,21,28,0,89.9
373,57.9,0.9,21,28,0,90.5
374,57.9,1.3,21,28,0,89.5
375,57.9,0.4,21,28,0,92.0
376,57.9,0.0,21,28,0,93.1
377,57.9,0.5,21,28,0,91.4
378,58.1,0.0,21,28,0,89.7
379,58.6,0.6,21,28,0,89.4
380,58.7,0.2,21,28,0,87.4
381,58.6,0.1,21,28,0,86.0
382,57.9,0.6,21,28,0,87.1
383,56.5,1.5,21,28,0,87.0
384,54.9,1.8,21,28,0,87.7
385,53.9,1.1,21,28,0,88.6
386,50.5,1.1,21,28,0,88.3
387,46.7,1.8,21,28,0,86.2
388,41.4,1.9,21,28,0,86.7
389,37.0,1.2,21,27,0,87.6
390,32.7,1.5,21,27,0,87.3
391,28.2,2.4,21,27,0,90.3
392,23.3,1.9,21,27,0,89.5
393,19.3,1.7,21,27,0,91.5
394,14.0,1.1,21,27,0,92.7
395,8.7,1.7,21,27,0,91.6
396,3.4,1.5,21,27,0,91.0
397,0.0,1.5,21,27,0,91.2
398,0.0,1.5,21,27,0,91.3
399,0.0,1.5,21,27,0,91.4
400,0.0,1.5,21,27,0,91.5
401,0.0,1.5,21,27,1,91.6
402,0.0,1.5,21,27,0,91.7
403,4.2,0.5,21,27,0,90.0
404,9.5,0.2,21,27,0,89.4
405,14.8,0.9,21,27,0,88.6
406,20.1,1.7,21,27,0,90.8
407,25.4,0.8,21,27,0,89.5
408,30.7,0.0,21,27,0,90.0
409,36.0,0.3,21,27,0,89.4
410,40.2,0.6,21,27,0,87.9
411,41.2,1.6,21,27,0,85.6
412,44.3,0.9,21,27,0,86.4
413,46.7,1.4,21,27,0,86.4
414,48.3,1.9,21,27,0,86.6
415,48.4,2.9,21,27,0,88.8
416,48.3,3.4,21,27,0,90.2
417,47.8,2.5,21,27,0,91.5
418,47.2,3.3,21,27,0,90.5
419,46.3,4.1,21,27,0,90.7
420,45.1,3.3,21,27,0,92.2
421,40.2,2.8,21,27,0,94.1
422,34.9,2.6,21,27,0,94.1
423,29.6,3.2,21,27,0,94.4
424,24.3,3.2,21,27,0,95.5
425,19.0,3.1,21,27,0,94.1
426,13.7,3.7,21,27,0,93.8
427,8.4,3.7,21,27,0,92.4
428,3.1,2.7,21,27,0,94.3
429,0.0,2.7,21,27,0,94.1
430,0.0,2.7,21,27,0,93.9
431,0.0,2.7,21,27,0,93.8
432,0.0,2.7,21,27,0,93.7
433,0.0,2.7,21,27,0,93.6
434,0.0,2.7,21,27,0,93.5
435,0.0,2.7,21,27,0,93.4
436,0.0,2.7,21,27,0,93.3
437,0.0,2.7,21,27,0,93.2
438,0.0,2.7,21,27,0,93.1
439,0.0,2.7,21,27,0,93.0
440,0.0,2.7,21,27,0,93.0
441,0.0,2.7,21,27,0,93.0
442,0.0,2.7,21,27,0,93.0
443,0.0,2.7,21,27,0,93.0
444,0.0,2.7,21,27,0,93.0
445,0.0,2.7,21,27,0,93.0
446,0.0,2.7,21,27,0,93.0
447,0.0,2.7,21,27,0,93.0
448,5.3,3.4,21,27,0,92.6
449,10.6,3.6,21,27,0,94.2
450,15.9,3.4,21,27,0,93.9
451,21.2,4.4,21,27,0,92.3
452,26.6,4.2,21,27,0,91.6
453,31.9,4.7,21,27,0,92.6
454,37.2,4.5,21,27,0,92.5
455,42.5,3.5,21,27,0,91.3
456,44.7,2.9,21,27,0,91.7
457,46.8,3.6,21,27,0,93.7
458,50.7,3.4,21,27,0,94.4
459,53.1,3.7,21,27,0,93.2
460,54.1,3.1,21,27,0,92.0
461,56.0,2.9,21,27,0,89.8
462,56.5,3.3,21,27,0,89.3
463,57.3,3.2,21,27,0,89.5
464,58.1,3.4,21,27,0,90.3
465,57.9,3.7,21,27,0,89.4
466,58.1,3.1,21,27,0,90.5
467,58.3,3.3,21,27,0,88.2
468,57.9,3.6,21,27,0,89.5
469,57.5,3.5,21,27,0,89.3
470,57.9,4.5,21,27,0,87.1
471,57.9,5.1,21,27,0,87.7
472,57.3,5.4,21,27,0,86.5
473,57.1,5.7,21,27,0,84.7
474,57.0,5.5,21,27,0,84.2
475,56.6,6.2,21,27,0,85.6
476,56.6,5.7,21,28,0,88.4
477,56.6,5.8,21,28,0,88.1
478,56.6,5.7,21,28,0,88.0
479,56.6,5.9,21,28,0,88.6
480,56.6,5.6,21,28,0,87.0
481,56.3,5.5,21,28,0,88.6
482,56.5,5.5,21,28,0,88.8
483,56.6,4.6,21,28,0,91.1
484,57.1,4.2,21,28,0,92.2
485,56.6,4.9,21,28,0,93.3
486,56.3,5.1,21,28,0,95.3
487,56.3,4.7,21,28,0,92.7
488,56.3,3.9,21,28,0,91.2
489,56.0,4.6,21,28,0,92.6
490,55.7,4.3,21,28,0,94.3
491,55.5,4.6,21,28,0,92.9
492,53.9,4.4,21,28,0,91.1
493,51.5,4.7,21,28,0,91.0
494,48.4,4.7,21,28,0,90.5
495,45.1,5.0,21,28,0,89.9
496,41.0,4.8,21,28,0,91.1
497,36.2,5.1,21,28,0,90.2
498,31.9,4.3,21,28,0,90.9
499,26.6,4.8,21,28,0,93.3
500,21.2,4.6,21,28,0,91.4
501,16.6,3.8,21,28,0,89.7
502,11.6,3.6,21,28,0,88.2
503,6.4,4.4,21,28,0,87.8
504,1.6,5.4,21,28,0,87.0
505,0.0,5.4,21,28,0,87.6
506,0.0,5.4,21,28,1,88.1
507,0.0,5.4,21,28,0,88.5
508,0.0,5.4,21,28,0,88.9
509,0.0,5.4,21,28,0,89.3
510,0.0,5.4,21,28,0,89.6
511,1.9,6.1,21,28,0,90.3
512,5.6,6.1,21,28,0,88.7
513,8.9,5.7,21,28,0,89.1
514,10.5,4.9,21,28,0,91.5
515,13.7,4.5,21,28,0,92.8
516,15.4,5.2,21,28,0,91.7
517,16.9,4.9,21,28,0,91.7
518,19.2,5.4,21,28,0,90.5
519,22.5,5.3,21,28,0,91.6
520,25.7,5.4,21,28,0,89.5
521,28.5,4.6,21,28,0,91.7
522,30.6,5.0,21,28,0,92.1
523,32.3,5.5,21,28,0,89.4
524,33.8,6.4,21,28,0,91.8
525,35.4,6.1,21,28,0,90.3
526,37.0,6.3,21,28,0,92.5
527,38.3,5.4,21,28,0,92.7
528,39.4,6.1,21,28,0,91.6
529,40.1,7.1,21,28,0,90.6
530,40.2,7.9,21,28,0,91.5
531,40.2,8.1,21,28,0,89.5
532,40.2,8.8,21,28,0,87.2
533,40.2,8.5,21,28,0,87.9
534,40.2,8.7,21,28,0,86.6
535,40.2,8.4,21,28,0,86.5
536,41.2,8.7,21,28,0,84.5
537,41.5,8.1,21,28,0,83.7
538,41.8,7.3,21,28,0,83.9
539,41.2,6.6,21,28,0,85.9
540,40.6,6.0,21,28,0,85.0
541,40.2,6.2,21,28,0,84.0
542,40.2,6.3,21,28,0,83.5
543,40.2,5.5,21,28,0,81.9
544,39.3,5.7,21,28,0,82.4
545,37.2,5.7,21,28,0,84.5
546,31.9,5.2,21,28,0,83.9
547,26.6,4.5,21,28,0,82.7
548,21.2,4.2,21,28,0,82.7
549,15.9,3.9,21,28,0,86.0
550,10.6,3.0,21,28,0,84.6
551,5.3,3.8,21,28,0,84.7
552,0.0,3.8,21,28,0,85.5
553,0.0,3.8,21,28,0,86.2
554,0.0,3.8,21,28,0,86.8
555,0.0,3.8,21,28,0,87.4
556,0.0,3.8,21,28,0,87.9
557,0.0,3.8,21,28,0,88.4
558,0.0,3.8,21,28,0,88.8
559,0.0,3.8,21,28,0,89.2
560,0.0,3.8,21,28,0,89.5
561,0.0,3.8,21,28,0,89.8
562,0.0,3.8,21,28,0,90.1
563,0.0,3.8,21,28,0,90.3
564,0.0,3.8,21,28,0,90.5
565,0.0,3.8,21,28,0,90.7
566,0.0,3.8,21,28,0,90.9
567,0.0,3.8,21,28,0,91.1
568,0.0,3.8,21,28,0,91.2
569,5.3,4.1,21,28,0,92.2
570,10.6,3.3,21,28,0,90.6
571,15.9,2.5,21,28,0,92.9
572,20.9,3.2,21,28,0,95.2
573,23.5,3.0,21,28,0,97.0
574,25.7,2.1,21,28,0,98.6
575,27.4,1.2,21,28,0,100.2
576,27.4,0.3,21,28,0,97.0
577,27.4,0.0,21,28,0,98.5
578,28.2,0.0,21,28,0,96.6
579,28.5,0.0,21,28,0,93.8
580,28.5,0.5,21,28,0,95.4
581,28.2,0.0,21,28,0,93.1
582,27.4,0.0,21,28,0,92.3
583,27.2,0.8,21,28,0,90.2
584,26.7,0.3,21,28,0,88.4
585,27.4,0.6,21,28,0,90.4
586,27.5,0.0,21,28,0,92.1
587,27.4,0.0,21,28,0,90.5
588,26.7,0.6,21,28,0,92.8
589,26.6,0.0,21,28,0,90.6
590,26.6,0.7,21,28,0,92.2
591,26.7,1.2,21,28,0,92.2
592,27.4,0.2,21,28,0,93.8
593,28.3,1.0,21,28,0,91.7
594,29.8,1.2,21,28,0,92.7
595,30.9,1.2,21,28,0,93.6
596,32.5,0.9,21,28,0,92.0
597,33.8,0.8,21,28,0,92.7
598,34.0,0.9,21,28,0,94.8
599,34.1,1.3,21,28,0,95.7
600,34.8,0.4,21,28,0,93.1
601,35.4,0.8,21,28,0,94.3
602,36.0,0.8,21,28,0,91.8
603,36.2,0.0,21,28,0,93.0
604,36.2,0.0,21,28,0,90.7
605,36.2,0.5,21,28,0,91.1
606,36.5,0.5,21,28,0,89.6
607,38.1,0.4,21,28,0,90.0
608,40.4,0.2,21,28,0,88.7
609,41.8,1.2,21,28,0,89.6
610,42.6,0.8,21,28,0,90.9
611,43.5,1.7,21,28,0,89.7
612,42.0,2.4,21,28,0,90.1
613,36.7,2.7,21,28,0,92.5
614,31.4,2.1,21,28,0,91.0
615,26.1,1.3,21,28,0,92.4
616,20.8,1.2,21,28,0,93.3
617,15.4,1.6,21,28,0,94.7
618,10.1,1.7,21,28,0,94.3
619,4.8,1.6,21,28,0,92.2
620,0.0,1.6,21,28,0,92.2
621,0.0,1.6,21,28,0,92.2
622,0.0,1.6,21,28,0,92.2
623,0.0,1.6,21,28,0,92.2
624,0.0,1.6,21,28,0,92.2
625,0.0,1.6,21,28,0,92.2
626,0.0,1.6,21,28,0,92.2
627,0.0,1.6,21,28,0,92.2
628,0.0,1.6,21,28,0,92.2
629,0.0,1.6,21,28,0,92.2
630,0.0,1.6,21,28,0,92.2
631,0.0,1.6,21,28,0,92.2
632,0.0,1.6,21,28,0,92.2
633,0.0,1.6,21,28,0,92.2
634,0.0,1.6,21,28,0,92.2
635,0.0,1.6,21,28,1,92.2
636,0.0,1.6,21,28,0,92.2
637,0.0,1.6,21,28,0,92.2
638,0.0,1.6,21,28,0,92.2
639,0.0,1.6,21,28,0,92.2
640,0.0,1.6,21,28,0,92.2
641,0.0,1.6,21,28,0,92.2
642,0.0,1.6,21,28,0,92.2
643,0.0,1.6,21,28,0,92.2
644,0.0,1.6,21,28,0,92.2
645,0.0,1.6,21,28,0,92.2
646,3.2,1.0,21,28,0,93.4
647,7.2,1.2,21,28,0,94.2
648,12.6,1.6,21,28,0,93.8
649,16.4,0.7,21,28,0,91.9
650,20.1,0.4,21,28,0,89.9
651,22.5,0.0,21,28,0,88.1
652,24.6,0.0,21,28,0,88.5
653,28.2,0.0,21,28,0,90.5
654,31.5,0.0,21,28,0,91.3
655,33.8,0.0,21,28,0,89.4
656,35.7,0.0,21,28,0,88.9
657,37.5,0.0,21,28,0,87.1
658,39.4,0.0,21,28,0,86.4
659,40.7,0.2,21,28,0,84.6
660,41.2,0.5,21,28,0,84.7
661,41.8,1.1,21,28,0,86.4
662,42.0,1.1,21,28,0,89.1
663,42.2,0.7,21,28,0,88.9
664,42.2,0.4,21,28,0,88.0
665,42.5,0.0,21,28,0,86.3
666,42.6,1.0,21,28,0,84.4
667,42.6,2.0,21,28,0,86.2
668,41.8,2.2,21,28,0,84.2
669,41.0,2.2,21,28,0,83.5
670,38.0,2.0,21,28,0,82.9
671,34.4,2.3,21,28,0,84.4
672,29.8,2.2,21,28,0,84.5
673,26.4,2.9,21,28,0,85.9
674,23.3,3.2,21,28,0,86.9
675,18.7,3.0,21,28,0,87.5
676,14.0,2.7,21,28,0,89.8
677,9.3,3.0,21,28,0,88.8
678,5.6,3.7,21,28,0,89.3
679,3.2,3.5,21,28,0,91.3
680,0.0,3.5,21,28,0,91.4
681,0.0,3.5,21,28,0,91.5
682,0.0,3.5,21,28,0,91.6
683,0.0,3.5,21,28,0,91.7
684,0.0,3.5,21,28,0,91.8
685,0.0,3.5,21,28,0,91.9
686,0.0,3.5,21,28,0,92.0
687,0.0,3.5,21,28,0,92.0
688,0.0,3.5,21,28,0,92.0
689,0.0,3.5,21,28,0,92.0
690,0.0,3.5,21,28,0,92.0
691,0.0,3.5,21,28,0,92.0
692,0.0,3.5,21,28,0,92.0
693,0.0,3.5,21,28,0,92.0
694,2.3,2.9,21,28,0,94.3
695,5.3,3.0,21,28,0,96.2
696,7.1,3.2,21,28,0,97.4
697,10.5,2.5,21,28,0,97.6
698,14.8,2.8,21,28,0,99.2
699,18.2,3.8,21,28,0,100.0
700,21.7,4.3,21,28,0,97.5
701,23.5,4.5,21,28,0,96.4
702,26.4,3.6,21,28,0,96.0
703,26.9,4.4,21,28,0,97.8
704,26.6,3.8,21,28,0,96.6
705,26.6,4.7,21,28,0,96.4
706,29.3,4.6,21,28,0,98.1
707,30.9,4.0,21,28,0,98.0
708,32.3,3.9,21,28,0,97.9
709,34.6,4.8,21,28,0,97.3
710,36.2,4.5,21,28,0,98.9
711,36.2,4.6,21,28,0,100.0
712,35.6,5.1,21,28,0,98.9
713,36.5,5.6,21,28,0,99.6
714,37.5,5.9,21,28,0,98.5
715,37.8,5.7,21,28,0,98.5
716,36.2,6.5,21,28,0,99.7
717,34.8,6.5,21,28,0,99.1
718,33.0,6.9,21,28,0,98.2
719,29.0,6.1,21,28,0,98.4
720,24.1,5.6,21,28,0,100.2
721,19.3,4.7,21,28,0,98.3
722,14.5,4.3,21,28,0,95.6
723,10.0,3.8,21,28,0,96.8
724,7.2,2.9,21,28,0,98.0
725,4.8,3.1,21,28,0,96.7
726,3.4,3.9,21,28,0,94.6
727,0.8,3.4,21,28,0,94.4
728,0.8,2.6,21,28,0,93.9
729,5.1,3.4,21,28,0,94.2
730,10.5,2.9,21,28,0,94.6
731,15.4,3.2,21,28,0,96.9
732,20.1,3.4,21,28,0,96.8
733,22.5,3.0,21,28,0,97.8
734,25.7,2.6,21,28,0,98.9
735,29.0,2.6,21,28,0,98.3
736,31.5,2.9,21,28,0,97.4
737,34.6,2.6,21,28,0,98.2
738,37.2,2.1,21,28,0,95.2
739,39.4,2.0,21,28,0,96.3
740,41.0,1.3,21,28,0,94.7
741,42.6,2.2,21,28,0,92.1
742,43.6,1.6,21,28,0,92.1
743,44.4,2.3,21,28,0,94.2
744,44.9,1.9,21,28,0,93.7
745,45.5,1.8,21,28,0,92.7
746,46.0,1.7,21,28,0,93.0
747,46.0,1.2,21,28,0,91.3
748,45.5,1.2,21,28,0,89.2
749,45.4,0.4,21,28,0,91.7
750,45.1,0.9,21,28,0,89.9
751,44.3,1.3,21,28,0,89.6
752,43.1,0.4,21,28,0,90.4
753,41.0,0.2,21,28,0,88.4
754,37.8,1.1,21,28,0,86.3
755,34.6,1.5,21,28,0,85.9
756,30.6,1.9,21,28,0,85.8
757,26.6,1.5,21,28,0,85.2
758,24.0,1.7,21,28,0,85.0
759,20.1,1.5,21,28,0,87.4
760,15.1,1.2,21,28,0,89.0
761,10.0,0.8,21,28,0,90.9
762,4.8,0.9,21,28,0,90.2
763,2.4,0.0,21,28,0,91.8
764,2.4,0.0,21,28,0,92.9
765,0.8,0.0,21,28,0,95.1
766,0.0,0.0,21,28,0,94.8
767,4.8,0.0,21,28,0,92.8
768,10.1,0.0,21,28,0,93.1
769,15.4,0.4,21,28,0,93.4
770,20.8,0.6,21,28,0,93.5
771,25.4,0.2,21,28,0,94.0
772,28.2,0.3,21,28,0,95.7
773,29.6,0.0,21,28,0,94.5
774,31.4,0.2,21,28,0,95.3
775,33.3,0.8,21,28,0,96.5
776,35.4,0.5,21,28,0,97.2
